##NAME:²É¼¯Í¼Æ×
##X_AXIS:Raman Shift(cm-1)
##Y_AXIS:ORIGINAL_REDUCE_DARK
##DATE:2025-03-15
##TIME:10:52:40
##LASERLENGTH:785
##LASERLEVEL:120
##INTGRTIME:5000
##>>>>>Begin Processed Spectral Data<<<<<
158,529
159,594.627
160,667.61
161,769.75
162,889.407
163,1033.54
164,1222.81
165,1418.8
166,1692.3
167,1965.81
168,2337.51
169,2732.36
170,3168.05
171,3638.54
172,4117.38
173,4618.58
174,5119.66
175,5597.31
176,6074.97
177,6518.17
178,6949.28
179,7315.03
180,7608.94
181,7891.73
182,8133.63
183,8375.52
184,8548.43
185,8717.91
186,8878.86
187,9036.03
188,9188.44
189,9334.63
190,9479.04
191,9615.12
192,9751.2
193,9887.76
194,10024.4
195,10165.5
196,10308.8
197,10448.9
198,10584.3
199,10719.9
200,10856.3
201,10992.7
202,11098.8
203,11202
204,11291.6
205,11374.4
206,11446.8
207,11504.7
208,11560.7
209,11607.5
210,11654.2
211,11657.2
212,11656.3
213,11665.9
214,11680.7
215,11705
216,11742
217,11765.4
218,11730.5
219,11695.7
220,11690.6
221,11687
222,11703.2
223,11727.3
224,11735.5
225,11726.2
226,11722.2
227,11735.6
228,11749
229,11728.4
230,11707.8
231,11704
232,11705.4
233,11683.9
234,11642.7
235,11621.9
236,11647.9
237,11673.6
238,11694.7
239,11715.8
240,11703.4
241,11685
242,11686.1
243,11699.1
244,11710
245,11717.6
246,11727.9
247,11750.8
248,11773.7
249,11789.5
250,11804.8
251,11830.8
252,11861
253,11893.6
254,11928.8
255,11954
256,11954
257,11954
258,11954
259,11954
260,11970.8
261,11990.7
262,11985.5
263,11965.6
264,11980
265,12042.3
266,12088.9
267,12073.5
268,12058.1
269,12067
270,12076
271,12061.7
272,12040.9
273,12028.9
274,12023.5
275,12029.9
276,12057.1
277,12081.1
278,12087.9
279,12094.7
280,12079
281,12062.3
282,12066.1
283,12077
284,12085.5
285,12091.8
286,12094.3
287,12089.3
288,12080.7
289,12050.2
290,12019.8
291,12015
292,12011.8
293,12007.3
294,12002.3
295,11969.3
296,11913.3
297,11879.3
298,11885.6
299,11891.4
300,11893.6
301,11895.9
302,11857.7
303,11818
304,11771.9
305,11723.9
306,11684.8
307,11651.9
308,11620.4
309,11591.2
310,11563.6
311,11542.6
312,11520.9
313,11465.9
314,11411
315,11379
316,11351.6
317,11317.8
318,11280.7
319,11249
320,11223.3
321,11193.1
322,11151.9
323,11115.9
324,11124.7
325,11133.4
326,11113.5
327,11091.5
328,11092.9
329,11102.1
330,11094.9
331,11075.6
332,11067.7
333,11076.9
334,11079.7
335,11060.9
336,11041.8
337,11019.2
338,10996.7
339,11002.1
340,11011.3
341,10991.4
342,10959.6
343,10937.5
344,10923.7
345,10916.6
346,10920.7
347,10916.1
348,10878.2
349,10841.8
350,10836.2
351,10830.7
352,10840.2
353,10851.7
354,10849.7
355,10842.3
356,10835.4
357,10828.9
358,10813.3
359,10783.7
360,10763.1
361,10771.9
362,10780.3
363,10784.5
364,10788.7
365,10771.5
366,10752.4
367,10748.7
368,10749.6
369,10749.1
370,10747.8
371,10754.5
372,10770.7
373,10779.6
374,10771.7
375,10764.4
376,10760.7
377,10757
378,10762.2
379,10767.3
380,10733.9
381,10694.3
382,10679
383,10673.4
384,10671.3
385,10671.7
386,10664.3
387,10646.1
388,10626.9
389,10605.5
390,10586.7
391,10584.3
392,10582
393,10585.7
394,10589.5
395,10575.1
396,10557.8
397,10564.2
398,10579.6
399,10588.5
400,10592.7
401,10585.3
402,10563.7
403,10550.6
404,10555.8
405,10564.7
406,10590.5
407,10615.2
408,10619.4
409,10623.7
410,10635.2
411,10647.5
412,10655.2
413,10661.8
414,10661.2
415,10657
416,10668.6
417,10694
418,10698
419,10671.2
420,10654.4
421,10662.9
422,10673.4
423,10694.1
424,10713.6
425,10704.2
426,10694.8
427,10691.4
428,10688.6
429,10675.9
430,10660.8
431,10660.2
432,10666.3
433,10682.9
434,10707.4
435,10715.3
436,10702.5
437,10703
438,10730
439,10761.5
440,10809.3
441,10847.8
442,10809
443,10770.1
444,10815.3
445,10860.8
446,10859.7
447,10852.6
448,10864.7
449,10882.2
450,10928.4
451,10988.7
452,11007
453,10992.7
454,11003.7
455,11044.6
456,11067.1
457,11056.2
458,11050.5
459,11060.5
460,11066.5
461,11049.8
462,11032.9
463,11011
464,10989.1
465,10947.7
466,10905.2
467,10887.2
468,10873.4
469,10860.3
470,10847.4
471,10862.2
472,10891.4
473,10895.9
474,10881.6
475,10886
476,10911.3
477,10930.1
478,10938.2
479,10940.9
480,10930.4
481,10916.9
482,10891.5
483,10867.4
484,10853
485,10837.2
486,10763.8
487,10690.5
488,10647.7
489,10607
490,10604.7
491,10609
492,10630.3
493,10656.8
494,10685.2
495,10714.5
496,10743.5
497,10772.3
498,10803.2
499,10835.9
500,10876
501,10925.1
502,10964.6
503,10987.7
504,10993.5
505,10957.9
506,10923.2
507,10891.8
508,10860.5
509,10829.1
510,10798
511,10769.5
512,10741
513,10730.4
514,10719.8
515,10705.5
516,10691
517,10692.3
518,10696.2
519,10684
520,10667.5
521,10660.2
522,10656.3
523,10663.9
524,10677.5
525,10694.8
526,10714.6
527,10717.6
528,10705.5
529,10691.1
530,10674.1
531,10645.7
532,10600.6
533,10574.4
534,10584.1
535,10583.5
536,10557.2
537,10532.4
538,10512.5
539,10490.1
540,10455.5
541,10420.8
542,10384.8
543,10346.9
544,10280.6
545,10214.8
546,10191.9
547,10169
548,10113.4
549,10056.3
550,10037.3
551,10022.2
552,10001.2
553,9979.2
554,9959.6
555,9940.55
556,9923.72
557,9907.59
558,9899.85
559,9895.45
560,9889.08
561,9881.74
562,9872.87
563,9863.07
564,9862.15
565,9867.53
566,9866.01
567,9858.66
568,9852.29
569,9846.9
570,9840.37
571,9832.51
572,9815.69
573,9786.72
574,9769
575,9769
576,9777.66
577,9802.24
578,9813.68
579,9796.96
580,9785.14
581,9785.63
582,9791.34
583,9812.51
584,9824.97
585,9806.74
586,9795.49
587,9813.73
588,9832.61
589,9854.8
590,9871.54
591,9853.28
592,9839.62
593,9863.81
594,9884.57
595,9867.27
596,9849.87
597,9830.59
598,9811.63
599,9801.24
600,9790.28
601,9738.32
602,9686.36
603,9664.86
604,9643.57
605,9614.07
606,9584.34
607,9557.91
608,9531.64
609,9516.51
610,9502.13
611,9470.37
612,9437.12
613,9465.05
614,9499.31
615,9475.96
616,9445.65
617,9441.56
618,9441.07
619,9445.32
620,9450.29
621,9460.39
622,9471.34
623,9489.89
624,9509.81
625,9519.28
626,9526.75
627,9547.09
628,9570.02
629,9587.61
630,9604.07
631,9630.78
632,9659.73
633,9701.76
634,9746.7
635,9768.44
636,9784.93
637,9814.04
638,9846.03
639,9843.86
640,9833.86
641,9831.18
642,9830.18
643,9834.5
644,9840
645,9830.74
646,9818.21
647,9795.36
648,9770.29
649,9757.69
650,9747.65
651,9706.18
652,9658.5
653,9670.47
654,9693.57
655,9675.18
656,9649.56
657,9622.62
658,9595.48
659,9600.33
660,9609.89
661,9589.64
662,9565.49
663,9538.15
664,9510.45
665,9471.26
666,9430.95
667,9410.71
668,9392.06
669,9370.06
670,9347.87
671,9351.85
672,9356.9
673,9356.01
674,9355
675,9346.42
676,9337.67
677,9321.49
678,9305.7
679,9298.62
680,9290.67
681,9270.43
682,9252.41
683,9256.97
684,9261
685,9261
686,9261
687,9261
688,9259.02
689,9247.36
690,9239.01
691,9244.08
692,9246.61
693,9240.52
694,9243.1
695,9270.54
696,9291.77
697,9297.88
698,9311.56
699,9341.06
700,9364.01
701,9375.21
702,9371.98
703,9346.52
704,9347.99
705,9385.19
706,9408.81
707,9416.97
708,9430.81
709,9450.2
710,9451.2
711,9436.91
712,9438.49
713,9451.26
714,9461.14
715,9469.32
716,9455.51
717,9430.97
718,9413.75
719,9399.42
720,9395.22
721,9394.2
722,9353.89
723,9304.21
724,9283.86
725,9268.48
726,9263.76
727,9260.17
728,9236.04
729,9211.01
730,9214.09
731,9216.2
732,9201.82
733,9187.72
734,9175.9
735,9164.16
736,9152.85
737,9151.72
738,9187.22
739,9210.18
740,9199.89
741,9192.83
742,9192.31
743,9199.42
744,9218.49
745,9236.63
746,9253.65
747,9268.04
748,9279.91
749,9280.29
750,9272.03
751,9278.81
752,9294.31
753,9299.36
754,9299.88
755,9314.18
756,9332.8
757,9334.29
758,9332.22
759,9363.97
760,9399.68
761,9399
762,9396.68
763,9386.84
764,9377.84
765,9376.29
766,9382.21
767,9423.72
768,9451.68
769,9438.18
770,9422.19
771,9400.9
772,9392.1
773,9402.49
774,9405.31
775,9399.59
776,9384.77
777,9362.4
778,9346.53
779,9334.55
780,9311.22
781,9283.1
782,9243.94
783,9201.73
784,9182.03
785,9165.87
786,9164.51
787,9162.68
788,9117.79
789,9078.53
790,9083.23
791,9088.77
792,9097.65
793,9106.53
794,9115.42
795,9111.84
796,9087.25
797,9075.21
798,9077.82
799,9074.39
800,9066.01
801,9063
802,9063
803,9072.61
804,9085.71
805,9079.77
806,9069.8
807,9065.62
808,9062.07
809,9067.33
810,9069.11
811,9042.83
812,9021.13
813,9016.92
814,9018.01
815,9031.17
816,9042.19
817,9050.09
818,9063.3
819,9081.73
820,9063.47
821,9021.31
822,9008.25
823,9007.2
824,8988.17
825,8964.96
826,8938.35
827,8911.69
828,8896.9
829,8883.6
830,8880.43
831,8882.72
832,8902.81
833,8905.45
834,8874.77
835,8854.16
836,8845.69
837,8831.54
838,8813.01
839,8789.81
840,8764.38
841,8728.9
842,8690.72
843,8681.26
844,8674.66
845,8655.02
846,8639.7
847,8652.44
848,8666.12
849,8682.6
850,8686.54
851,8668.99
852,8670.37
853,8691.65
854,8695.8
855,8688.88
856,8697.87
857,8712.78
858,8730.42
859,8748.53
860,8752.12
861,8756.58
862,8772.58
863,8782.73
864,8772.59
865,8773.85
866,8796.28
867,8818.46
868,8840.37
869,8858.07
870,8873.04
871,8872.28
872,8865.86
873,8883.08
874,8903.95
875,8900.79
876,8899.75
877,8913.14
878,8922.29
879,8919.61
880,8920.57
881,8927
882,8937.74
883,8952.23
884,8959.88
885,8964.18
886,8976.73
887,8991.24
888,8972.13
889,8951.82
890,8938.38
891,8932.06
892,8949.82
893,8941.86
894,8890.16
895,8856.15
896,8838.91
897,8830.17
898,8825.85
899,8828.46
900,8832.78
901,8812.53
902,8792.64
903,8788.86
904,8785.74
905,8784.66
906,8776.58
907,8757.66
908,8744.01
909,8734.82
910,8717.36
911,8696.25
912,8674.68
913,8653.02
914,8644.34
915,8635.42
916,8625.12
917,8620.34
918,8627.94
919,8620.4
920,8595.44
921,8584.31
922,8581.6
923,8597.53
924,8618.72
925,8617.96
926,8619.31
927,8652.49
928,8668.19
929,8634.45
930,8629.99
931,8665.38
932,8664.33
933,8637.64
934,8614.62
935,8592.82
936,8602
937,8615.13
938,8640.78
939,8655.76
940,8638.83
941,8638.61
942,8661.56
943,8689.98
944,8722.23
945,8718.79
946,8704.03
947,8697.91
948,8690.13
949,8662.21
950,8636.1
951,8614.73
952,8603.99
953,8606.18
954,8611.12
955,8617.7
956,8597.41
957,8570.53
958,8570
959,8565.64
960,8538.17
961,8514.79
962,8499.4
963,8479.44
964,8455.25
965,8435.28
966,8417.12
967,8401.39
968,8385.06
969,8355.86
970,8323.48
971,8281.6
972,8258.48
973,8259.58
974,8241.09
975,8210.74
976,8236.33
977,8274.97
978,8228.09
979,8195.74
980,8226.13
981,8245.63
982,8247.29
983,8251.47
984,8257.56
985,8271.68
986,8288.28
987,8272.04
988,8258.85
989,8271.04
990,8284.39
991,8299.91
992,8308.21
993,8310.42
994,8319.64
995,8331.29
996,8340.87
997,8354.63
998,8395.2
999,8410.11
1000,8375.09
1001,8382.16
1002,8425
1003,8452.55
1004,8474.81
1005,8490.76
1006,8504.93
1007,8511.06
1008,8518.78
1009,8529.37
1010,8537.45
1011,8543.59
1012,8538.12
1013,8529.19
1014,8531.73
1015,8537.78
1016,8557.9
1017,8567.55
1018,8561.4
1019,8574.69
1020,8600.42
1021,8587.98
1022,8567.39
1023,8550.03
1024,8540.07
1025,8552.4
1026,8555.87
1027,8549.15
1028,8532.49
1029,8511.17
1030,8488.33
1031,8469.89
1032,8486.18
1033,8476.27
1034,8414.47
1035,8393.87
1036,8406.24
1037,8397.21
1038,8382.02
1039,8347.71
1040,8321.87
1041,8325.82
1042,8324.48
1043,8316.6
1044,8300.39
1045,8280.09
1046,8297.73
1047,8316.79
1048,8315.1
1049,8304.67
1050,8278.13
1051,8287.01
1052,8321.47
1053,8347.7
1054,8371.26
1055,8377.48
1056,8387.72
1057,8408.66
1058,8435.9
1059,8469.31
1060,8480.51
1061,8483.91
1062,8522.66
1063,8558.89
1064,8582.14
1065,8592.46
1066,8586.79
1067,8601.71
1068,8626.12
1069,8604.41
1070,8583.92
1071,8589.61
1072,8597.35
1073,8608.16
1074,8594.76
1075,8568.02
1076,8567.52
1077,8561.91
1078,8499.82
1079,8467.62
1080,8485.29
1081,8491.29
1082,8490.15
1083,8463.31
1084,8436.13
1085,8437.27
1086,8436.14
1087,8431
1088,8409.8
1089,8378.37
1090,8362.18
1091,8349.1
1092,8341.09
1093,8332.25
1094,8321.94
1095,8304.92
1096,8283.73
1097,8276.01
1098,8269.41
1099,8256.8
1100,8238.27
1101,8210.16
1102,8201.83
1103,8204.7
1104,8190.59
1105,8170.94
1106,8131.87
1107,8108.28
1108,8106.56
1109,8105.22
1110,8104.07
1111,8063.56
1112,8033.59
1113,8056.63
1114,8058.07
1115,8034.44
1116,8049.38
1117,8078.78
1118,8030.91
1119,8001.58
1120,8026.97
1121,8041.13
1122,8045.17
1123,8043.71
1124,8040.96
1125,8040.39
1126,8054.08
1127,8096.31
1128,8127.35
1129,8151.07
1130,8162.12
1131,8174.85
1132,8207.29
1133,8235.82
1134,8259
1135,8283.82
1136,8309.33
1137,8337.69
1138,8361.47
1139,8371.34
1140,8394.72
1141,8430.15
1142,8439.34
1143,8440.09
1144,8418
1145,8400.16
1146,8389.69
1147,8403.73
1148,8431.09
1149,8401.03
1150,8375
1151,8379.66
1152,8368.94
1153,8342.7
1154,8359.84
1155,8385.83
1156,8368.9
1157,8366.73
1158,8391.26
1159,8390.22
1160,8375.02
1161,8381.63
1162,8388.65
1163,8391.58
1164,8409.52
1165,8441.71
1166,8450.36
1167,8453.17
1168,8454.93
1169,8460.81
1170,8473.12
1171,8457.3
1172,8428.56
1173,8415.34
1174,8397.71
1175,8367.76
1176,8346.57
1177,8331.88
1178,8333.08
1179,8338.82
1180,8355.29
1181,8348.47
1182,8315.51
1183,8291.18
1184,8270.04
1185,8257.08
1186,8247.89
1187,8244.94
1188,8229.95
1189,8209.31
1190,8202.61
1191,8196.11
1192,8189.62
1193,8199.34
1194,8220.02
1195,8207.03
1196,8200.16
1197,8229.14
1198,8227.25
1199,8197.07
1200,8193.48
1201,8193.9
1202,8186.2
1203,8195.75
1204,8225.98
1205,8238.01
1206,8244
1207,8244
1208,8260.47
1209,8302.03
1210,8314.42
1211,8315.27
1212,8324.78
1213,8356.92
1214,8431.84
1215,8455.81
1216,8454.03
1217,8454.59
1218,8466.4
1219,8503.92
1220,8534.76
1221,8561.57
1222,8575.42
1223,8589.34
1224,8605.45
1225,8620.15
1226,8633.88
1227,8675.04
1228,8713.1
1229,8734.02
1230,8753.23
1231,8771.17
1232,8798.78
1233,8831.56
1234,8878.25
1235,8911.64
1236,8934.4
1237,8956.64
1238,8976.86
1239,8990.05
1240,8998.3
1241,9002.5
1242,9015.17
1243,9029.75
1244,9047.17
1245,9068.22
1246,9092.25
1247,9115.77
1248,9134.27
1249,9135.47
1250,9149.81
1251,9174.48
1252,9182.95
1253,9199.86
1254,9249.86
1255,9287.35
1256,9315.68
1257,9333.51
1258,9363.9
1259,9432.69
1260,9484.03
1261,9523.87
1262,9607.78
1263,9682.91
1264,9730.65
1265,9774.18
1266,9815.31
1267,9857.04
1268,9896
1269,9929.3
1270,9960.55
1271,9990.59
1272,10011.8
1273,10029.6
1274,10041.7
1275,10040.6
1276,10031.4
1277,9987.14
1278,9968.57
1279,9983.76
1280,9960.24
1281,9930.4
1282,9926.15
1283,9916.76
1284,9902.16
1285,9886.51
1286,9870.18
1287,9851.91
1288,9841.23
1289,9836.36
1290,9805.51
1291,9783.05
1292,9786.71
1293,9779.32
1294,9765.98
1295,9762.92
1296,9763.49
1297,9770.21
1298,9769.31
1299,9763.55
1300,9738.47
1301,9719.62
1302,9707.99
1303,9725.79
1304,9746.32
1305,9753.06
1306,9740.12
1307,9711.92
1308,9714
1309,9719.77
1310,9728.98
1311,9716.33
1312,9693.79
1313,9688.88
1314,9672.48
1315,9639.91
1316,9618.95
1317,9599.32
1318,9570.4
1319,9544.45
1320,9521.06
1321,9498.78
1322,9467.88
1323,9415.5
1324,9367.61
1325,9322.94
1326,9298.88
1327,9273.5
1328,9246.34
1329,9215.2
1330,9183.31
1331,9152.42
1332,9135.15
1333,9128.35
1334,9085.17
1335,9049.25
1336,9031.92
1337,9007.04
1338,8984.07
1339,9004.52
1340,9017.12
1341,9021.46
1342,8994.88
1343,8969.56
1344,8960.25
1345,8961.85
1346,8969.38
1347,8978.7
1348,8973.29
1349,8948.42
1350,8923.03
1351,8899.8
1352,8884.86
1353,8882.03
1354,8886.96
1355,8855.81
1356,8817.99
1357,8770
1358,8759.01
1359,8751.78
1360,8718.71
1361,8689.28
1362,8662.44
1363,8676.13
1364,8667.78
1365,8622.78
1366,8590.49
1367,8563.56
1368,8544.79
1369,8519.42
1370,8489.37
1371,8449.41
1372,8416.18
1373,8393.62
1374,8355.6
1375,8313.96
1376,8273.81
1377,8235.17
1378,8197.9
1379,8190.37
1380,8175.96
1381,8152.08
1382,8144.35
1383,8130.05
1384,8084.13
1385,8045.14
1386,8010
1387,7976.63
1388,7949.19
1389,7928.4
1390,7923.21
1391,7906.52
1392,7857.96
1393,7811.17
1394,7770.03
1395,7762.45
1396,7764.84
1397,7775.58
1398,7771.14
1399,7755.77
1400,7723.52
1401,7716.5
1402,7712.28
1403,7695.19
1404,7676.88
1405,7658.36
1406,7647.59
1407,7633.15
1408,7614.76
1409,7605.54
1410,7595.42
1411,7581.45
1412,7579.91
1413,7582.45
1414,7585
1415,7573.31
1416,7553.36
1417,7564.82
1418,7572.76
1419,7576.58
1420,7587.75
1421,7588.29
1422,7564.08
1423,7581.4
1424,7599.86
1425,7560.31
1426,7546.56
1427,7548.91
1428,7547
1429,7535.27
1430,7512.91
1431,7529.12
1432,7537.74
1433,7525.59
1434,7518.97
1435,7510.27
1436,7489.14
1437,7492.18
1438,7506.19
1439,7508.12
1440,7522.87
1441,7548.53
1442,7499.25
1443,7481.68
1444,7509.28
1445,7489.66
1446,7469.81
1447,7465.95
1448,7452.9
1449,7434.8
1450,7408.42
1451,7388.65
1452,7372.68
1453,7357.86
1454,7330.94
1455,7293.57
1456,7298.71
1457,7285.77
1458,7248.35
1459,7228.6
1460,7218.51
1461,7223.03
1462,7200.65
1463,7178.31
1464,7179.6
1465,7160.33
1466,7132.15
1467,7105.62
1468,7094.22
1469,7092.78
1470,7088.9
1471,7066.1
1472,7025.26
1473,7024
1474,7033.15
1475,7054.56
1476,7071.96
1477,7083.22
1478,7083.87
1479,7071.95
1480,7066.22
1481,7085.73
1482,7071.53
1483,7051.51
1484,7059.32
1485,7052.59
1486,7039.05
1487,7031.23
1488,7019.96
1489,7007.03
1490,7007.69
1491,7002.23
1492,6991.13
1493,6998.75
1494,6996.43
1495,6982.05
1496,6994.93
1497,7006.86
1498,7014.05
1499,6984.31
1500,6965.46
1501,6978.55
1502,6967.68
1503,6944.16
1504,6902.86
1505,6875.02
1506,6856.22
1507,6852.94
1508,6837.03
1509,6820.62
1510,6823.91
1511,6815.35
1512,6801.75
1513,6793.2
1514,6772.72
1515,6746.61
1516,6733.45
1517,6719.12
1518,6704.69
1519,6700.07
1520,6685.65
1521,6664.72
1522,6685.83
1523,6693.6
1524,6689.14
1525,6730.09
1526,6748.09
1527,6742.14
1528,6749.74
1529,6756.45
1530,6761.74
1531,6797.9
1532,6830.09
1533,6855.25
1534,6839.12
1535,6848.94
1536,6898.66
1537,6919.34
1538,6930
1539,6930
1540,6948.49
1541,6964.12
1542,6972.1
1543,7001.88
1544,7031.66
1545,7056.93
1546,7107.35
1547,7147.75
1548,7165.73
1549,7175.56
1550,7185.96
1551,7199.29
1552,7225.41
1553,7254.66
1554,7286.02
1555,7324.38
1556,7336.98
1557,7304.92
1558,7331.5
1559,7346.88
1560,7330.84
1561,7350.92
1562,7355.54
1563,7328.77
1564,7299.59
1565,7273.9
1566,7253.8
1567,7210.49
1568,7172.2
1569,7144.03
1570,7117.09
1571,7087.6
1572,7054.7
1573,7058.1
1574,7043.38
1575,7005.07
1576,6949.09
1577,6913.8
1578,6901.01
1579,6880.15
1580,6867.92
1581,6863.42
1582,6843.2
1583,6824.08
1584,6806.37
1585,6796.25
1586,6770.08
1587,6733.67
1588,6710.04
1589,6690.15
1590,6668.94
1591,6625
1592,6622.48
1593,6635.92
1594,6624.42
1595,6609.1
1596,6598.61
1597,6610.12
1598,6580.96
1599,6558.21
1600,6588.05
1601,6603.78
1602,6617.78
1603,6635.43
1604,6676.31
1605,6706.86
1606,6714.34
1607,6817.86
1608,6884
1609,6890.8
1610,6937.93
1611,6978.07
1612,7011.04
1613,7071.01
1614,7109.75
1615,7134.16
1616,7175.78
1617,7187.1
1618,7180.73
1619,7173.22
1620,7164.74
1621,7148.58
1622,7109.61
1623,7040.26
1624,6974.85
1625,6936.52
1626,6897
1627,6847.25
1628,6782.16
1629,6751.05
1630,6700.32
1631,6626.56
1632,6603.92
1633,6557.73
1634,6496.3
1635,6461.27
1636,6419.97
1637,6370.46
1638,6301.01
1639,6268.73
1640,6244.32
1641,6207.14
1642,6157.3
1643,6113.39
1644,6083.07
1645,6006.46
1646,5959.02
1647,5944.88
1648,5878.61
1649,5858.25
1650,5864.33
1651,5829.78
1652,5801.4
1653,5767.46
1654,5707.28
1655,5685.64
1656,5672.41
1657,5656.48
1658,5626.1
1659,5603.86
1660,5592.31
1661,5559.02
1662,5541.38
1663,5531.5
1664,5498.87
1665,5465.26
1666,5443.94
1667,5459.24
1668,5423.26
1669,5390.55
1670,5381.51
1671,5375.74
1672,5354.27
1673,5320.4
1674,5325.97
1675,5313.8
1676,5290.64
1677,5264.13
1678,5259.61
1679,5260.53
1680,5259.13
1681,5235.62
1682,5217.37
1683,5208.12
1684,5210.92
1685,5185.41
1686,5153.48
1687,5172.38
1688,5157.94
1689,5137.78
1690,5127.96
1691,5124.47
1692,5098.63
1693,5049.64
1694,5042.62
1695,5023.72
1696,5001.01
1697,4991.17
1698,4961.59
1699,4934.97
1700,4923.72
1701,4896.64
1702,4875.37
1703,4861.87
1704,4860.46
1705,4843.78
1706,4823.45
1707,4813.57
1708,4801.91
1709,4780.94
1710,4747.88
1711,4731.63
1712,4720.4
1713,4710.23
1714,4689.01
1715,4687.24
1716,4685.78
1717,4673.74
1718,4649.08
1719,4633.27
1720,4628.64
1721,4642.82
1722,4630.48
1723,4601.6
1724,4559.72
1725,4577.06
1726,4581.14
1727,4564
1728,4564
1729,4553.1
1730,4537.67
1731,4524.85
1732,4519.35
1733,4516.68
1734,4515.32
1735,4501.06
1736,4494.62
1737,4487.8
1738,4466.39
1739,4472.02
1740,4492.19
1741,4522.41
1742,4508.11
1743,4495.65
1744,4491.02
1745,4507.48
1746,4500.91
1747,4504.67
1748,4523.3
1749,4491.77
1750,4475.81
1751,4470.19
1752,4470.91
1753,4471
1754,4467.92
1755,4461.33
1756,4453.43
1757,4450.5
1758,4455.43
1759,4473.42
1760,4471.06
1761,4466.74
1762,4464.64
1763,4476.89
1764,4450.43
1765,4429.4
1766,4441.66
1767,4430.08
1768,4416.53
1769,4401.8
1770,4385.91
1771,4378.87
1772,4374.75
1773,4372.18
1774,4375.8
1775,4368.29
1776,4356.92
1777,4349.68
1778,4353.6
1779,4343.4
1780,4320.22
1781,4301.36
1782,4288.63
1783,4288.81
1784,4305.64
1785,4279.48
1786,4259.8
1787,4250.48
1788,4259.93
1789,4247.44
1790,4234.4
1791,4226.83
1792,4239.95
1793,4221.2
1794,4204.29
1795,4205.23
1796,4214.71
1797,4195.1
1798,4174.35
1799,4189.69
1800,4170.95
1801,4166.19
1802,4172.3
1803,4162.79
1804,4165.16
1805,4164.08
1806,4155.88
1807,4154.42
1808,4150.33
1809,4142.88
1810,4131.14
1811,4133.9
1812,4150.61
1813,4168.03
1814,4164.36
1815,4153.39
1816,4141.22
1817,4131.13
1818,4131.87
1819,4124.12
1820,4121.4
1821,4124.73
1822,4112.94
1823,4123.84
1824,4135
1825,4134.13
1826,4111.99
1827,4098.93
1828,4097.88
1829,4112.66
1830,4106.5
1831,4088.29
1832,4072.62
1833,4082.25
1834,4091.87
1835,4092.19
1836,4080.27
1837,4049.88
1838,4039.53
1839,4029.39
1840,4016.38
1841,4001.53
1842,4003.93
1843,4005.56
1844,4002.08
1845,3995.38
1846,3980.43
1847,3963.64
1848,3946.79
1849,3925.94
1850,3928.96
1851,3928.72
1852,3911.83
1853,3872.3
1854,3874.14
1855,3886.09
1856,3889.91
1857,3871.98
1858,3871.32
1859,3875
1860,3873.36
1861,3838.94
1862,3823.14
1863,3821.1
1864,3828.88
1865,3825.88
1866,3813.34
1867,3808.04
1868,3820.54
1869,3809.28
1870,3791.63
1871,3781.55
1872,3787.69
1873,3780.92
1874,3776.84
1875,3769.76
1876,3756.3
1877,3744.25
1878,3736.6
1879,3733.91
1880,3735.07
1881,3723
1882,3734.17
1883,3739.21
1884,3727.31
1885,3730.33
1886,3728.65
1887,3732.51
1888,3743.4
1889,3746.43
1890,3728.58
1891,3721.08
1892,3731.35
1893,3751.05
1894,3739.17
1895,3742.7
1896,3756.44
1897,3739.74
1898,3733.92
1899,3722.76
1900,3711
1901,3711
1902,3690.81
1903,3675.77
1904,3662.17
1905,3643.95
1906,3635.57
1907,3601.29
1908,3577.36
1909,3586.82
1910,3570.04
1911,3566
1912,3561.88
1913,3552.93
1914,3545.28
1915,3549.09
1916,3549.59
1917,3548.16
1918,3558.11
1919,3561.79
1920,3576.44
1921,3601.66
1922,3633.86
1923,3611.85
1924,3616.68
1925,3631.78
1926,3643.93
1927,3654.69
1928,3635.28
1929,3598.66
1930,3560.43
##>>>>>End Processed Spectral Data<<<<<
