##NAME:²É¼¯Í¼Æ×
##X_AXIS:Raman Shift(cm-1)
##Y_AXIS:ORIGINAL_REDUCE_DARK
##DATE:2025-04-02
##TIME:10:18:09
##LASERLENGTH:785
##LASERLEVEL:120
##INTGRTIME:5000
##>>>>>Begin Processed Spectral Data<<<<<
158,509
159,580.557
160,660.135
161,778.766
162,920.858
163,1088.2
164,1302.13
165,1524.94
166,1850.41
167,2175.89
168,2579.61
169,3001.79
170,3475.05
171,3991.84
172,4514.83
173,5054.41
174,5593.86
175,6108.6
176,6623.34
177,7067.99
178,7488.06
179,7861.5
180,8183.7
181,8492.13
182,8749.95
183,9007.77
184,9212.2
185,9413.98
186,9615.83
187,9817.72
188,10007.6
189,10181.7
190,10359.4
191,10554
192,10748.6
193,10957.1
194,11166.9
195,11373.8
196,11579.3
197,11789.8
198,12007.3
199,12220.7
200,12412.2
201,12603.7
202,12804.2
203,13005.6
204,13205
205,13403.4
206,13593.9
207,13773.3
208,13947.5
209,14095.8
210,14244.1
211,14373.6
212,14501.5
213,14632.8
214,14765.6
215,14897.4
216,15027.6
217,15154.1
218,15264.3
219,15374.6
220,15476.4
221,15577.8
222,15674.4
223,15769.2
224,15862.2
225,15953.5
226,16045
227,16137.6
228,16230.2
229,16304
230,16377.9
231,16423.2
232,16460
233,16503.7
234,16553.4
235,16611.4
236,16688.1
237,16761.7
238,16798.1
239,16834.4
240,16892.8
241,16955.2
242,16995.7
243,17022.6
244,17061.3
245,17117.9
246,17172.2
247,17214.9
248,17257.6
249,17285.1
250,17311.6
251,17374
252,17450.1
253,17501.3
254,17527.9
255,17559.1
256,17601.9
257,17645.1
258,17693.3
259,17741.6
260,17762.4
261,17778.2
262,17783.4
263,17782.5
264,17768.8
265,17737.2
266,17692.5
267,17596.7
268,17500.8
269,17387
270,17273
271,17125.7
272,16969.1
273,16795.1
274,16608.1
275,16420.2
276,16230.8
277,16038.2
278,15828.2
279,15618.3
280,15419.9
281,15222.1
282,15054.7
283,14897.7
284,14744
285,14593.2
286,14458.7
287,14355.6
288,14256.9
289,14185.5
290,14114.1
291,14101.4
292,14092.3
293,14069.7
294,14042.3
295,14007.3
296,13965.8
297,13932.7
298,13915
299,13885.4
300,13793.3
301,13701.1
302,13612.5
303,13524
304,13373.6
305,13205.1
306,13038.4
307,12873
308,12704.2
309,12530.1
310,12350.6
311,12150.7
312,11951.4
313,11777
314,11602.7
315,11429.4
316,11256.3
317,11127
318,11021.2
319,10903.5
320,10772.4
321,10658.8
322,10588.6
323,10520.9
324,10473.7
325,10426.4
326,10348.4
327,10268
328,10218.3
329,10178.8
330,10144.3
331,10113.5
332,10072.6
333,10016.5
334,9971.86
335,9966.8
336,9960.52
337,9932.43
338,9904.34
339,9888.41
340,9874.13
341,9860.49
342,9847.12
343,9832.5
344,9816.81
345,9807.35
346,9808.27
347,9808.23
348,9804.54
349,9801.02
350,9801.48
351,9801.94
352,9806.88
353,9812.43
354,9811.35
355,9807.65
356,9827.58
357,9866.46
358,9894.57
359,9906.15
360,9915.11
361,9915.57
362,9916.43
363,9922
364,9927.56
365,9934.41
366,9941.37
367,9976.09
368,10019.3
369,10023.2
370,10002.3
371,9992.5
372,9995.75
373,10003.4
374,10021.1
375,10036.9
376,10042.5
377,10048
378,10051.8
379,10055.5
380,10044.4
381,10030.9
382,10044.7
383,10069.4
384,10090.4
385,10108.5
386,10120.2
387,10123
388,10123
389,10116
390,10110.9
391,10117.5
392,10124
393,10121.7
394,10119.3
395,10103.3
396,10085.1
397,10074.6
398,10067.1
399,10054.7
400,10038.7
401,10023.7
402,10009.6
403,9998.37
404,9993.21
405,9991.67
406,10006.2
407,10021.4
408,10047.6
409,10073.9
410,10064.8
411,10052.5
412,10047
413,10043.3
414,10030.1
415,10012.3
416,10002.5
417,9999.66
418,9989.88
419,9970.11
420,9961.12
421,9979.02
422,9992.54
423,9983.59
424,9973.67
425,9941.14
426,9908.61
427,9924.23
428,9944.04
429,9943.47
430,9937.8
431,9961.44
432,9998.75
433,10023.8
434,10039.4
435,10054.8
436,10069.9
437,10075.6
438,10062.3
439,10054.3
440,10064.7
441,10077.6
442,10110.7
443,10143.9
444,10135.5
445,10127
446,10154.2
447,10185.9
448,10188.2
449,10182
450,10156.8
451,10122.1
452,10086.1
453,10049.1
454,10021.6
455,10005.4
456,9986.06
457,9960.85
458,9936.61
459,9915.19
460,9894.64
461,9878.93
462,9861.83
463,9818.48
464,9775.13
465,9749.89
466,9725.58
467,9697.59
468,9668.98
469,9645.04
470,9622.61
471,9606.17
472,9592.8
473,9573.48
474,9549.59
475,9522.76
476,9492.64
477,9452.68
478,9396.72
479,9355.61
480,9350.83
481,9342.39
482,9319.41
483,9296.47
484,9273.96
485,9251.62
486,9236.28
487,9220.94
488,9230.36
489,9241.39
490,9251.61
491,9261.69
492,9266.59
493,9269.95
494,9304.05
495,9352.1
496,9359.63
497,9340.88
498,9330.99
499,9329.06
500,9321.75
501,9307.79
502,9299.36
503,9300.32
504,9302.55
505,9307.86
506,9315.89
507,9333.73
508,9350.11
509,9357.83
510,9367.15
511,9397.56
512,9427.97
513,9475.28
514,9522.61
515,9526.9
516,9527.86
517,9554.99
518,9586.42
519,9618.62
520,9651.03
521,9684.51
522,9718.39
523,9735.41
524,9743.65
525,9751.31
526,9758.58
527,9765.85
528,9773.12
529,9769.76
530,9754.23
531,9737.52
532,9719.08
533,9688.55
534,9635.13
535,9589.62
536,9563.87
537,9537.22
538,9507.56
539,9480.15
540,9463.61
541,9445.48
542,9415.3
543,9385.54
544,9362.16
545,9338.98
546,9336.54
547,9334.1
548,9308.32
549,9281.5
550,9253.79
551,9225.97
552,9229.53
553,9238.32
554,9238.82
555,9237.35
556,9212.44
557,9180.18
558,9168.55
559,9165.13
560,9161.38
561,9157.46
562,9137.6
563,9108.22
564,9096.57
565,9097.55
566,9077
567,9038.28
568,9006.93
569,8982.9
570,8971.82
571,8975.74
572,8964.23
573,8931.83
574,8914.1
575,8919.5
576,8914.51
577,8890.43
578,8873.22
579,8870.76
580,8870.82
581,8877.22
582,8881.25
583,8878.3
584,8873.6
585,8862.76
586,8845.89
587,8803.5
588,8767.36
589,8763.41
590,8761.06
591,8768.96
592,8779.32
593,8809.93
594,8835.01
595,8798.94
596,8764.54
597,8756.63
598,8749.37
599,8759.76
600,8769.75
601,8751.94
602,8734.12
603,8709.91
604,8685.65
605,8690.3
606,8695.75
607,8722.03
608,8749.3
609,8768.67
610,8787.52
611,8783.51
612,8777.56
613,8815.25
614,8857.46
615,8878.85
616,8897.73
617,8933.67
618,8971.94
619,9013.69
620,9055.97
621,9080.77
622,9102.67
623,9122.47
624,9141.89
625,9188.93
626,9241.24
627,9284.86
628,9326.74
629,9350.49
630,9370.44
631,9393.27
632,9416.73
633,9443.46
634,9470.93
635,9496.37
636,9521.35
637,9479.21
638,9421.72
639,9415.07
640,9420.07
641,9401.84
642,9378.32
643,9385.44
644,9399.47
645,9378.6
646,9350.04
647,9347.06
648,9349.57
649,9342.93
650,9334.41
651,9325.87
652,9317.34
653,9299.07
654,9278.99
655,9277.71
656,9279.72
657,9273.07
658,9265.03
659,9260.49
660,9256.47
661,9242.65
662,9227.55
663,9199.34
664,9169.63
665,9151.85
666,9135.22
667,9088.68
668,9039.78
669,9019.4
670,9000.73
671,8971.39
672,8941.61
673,8924.68
674,8908.01
675,8883.76
676,8860.46
677,8883.21
678,8904.68
679,8897.09
680,8890.93
681,8905.1
682,8919.41
683,8935.11
684,8954.84
685,9005.51
686,9051.8
687,9071.57
688,9091.95
689,9115.29
690,9142.95
691,9188.12
692,9231.79
693,9270.39
694,9306.23
695,9334.18
696,9358.29
697,9373.03
698,9379.7
699,9369.53
700,9374.67
701,9407.24
702,9429.81
703,9436.94
704,9435.08
705,9421.33
706,9410.9
707,9404.27
708,9378.02
709,9332.62
710,9304.2
711,9289.91
712,9261.22
713,9222.41
714,9208
715,9208
716,9164.38
717,9099.45
718,9057.93
719,9025.7
720,9018.78
721,9019.8
722,9003.46
723,8982.97
724,9000.59
725,9024.67
726,9029.32
727,9031.88
728,9048.62
729,9066.04
730,9077.34
731,9086.94
732,9067.94
733,9055.63
734,9098.28
735,9133.67
736,9131.61
737,9140.07
738,9186.37
739,9227.61
740,9255.4
741,9284.74
742,9317.18
743,9354.65
744,9400
745,9448.6
746,9501.19
747,9544.6
748,9579.16
749,9630.83
750,9695.35
751,9715.07
752,9708.88
753,9718.17
754,9734.19
755,9748.24
756,9761.69
757,9731.02
758,9691.18
759,9664.76
760,9639.92
761,9603.09
762,9566.23
763,9542.39
764,9516.48
765,9472.41
766,9436.63
767,9440.26
768,9445.81
769,9457.23
770,9477.62
771,9517.09
772,9545.92
773,9558.39
774,9606.53
775,9694.92
776,9751.21
777,9780.86
778,9841.07
779,9919.67
780,9943.73
781,9944.77
782,9932.76
783,9917.12
784,9889.32
785,9859.6
786,9789.39
787,9717.55
788,9667.96
789,9618.43
790,9569.33
791,9525.12
792,9500.56
793,9474.8
794,9446.04
795,9422.35
796,9407.18
797,9379.69
798,9337.82
799,9319.87
800,9321.44
801,9311.25
802,9294.48
803,9288.46
804,9286.37
805,9269.98
806,9250.56
807,9241.28
808,9232.85
809,9222.35
810,9214.56
811,9228.75
812,9236.95
813,9222.23
814,9214.57
815,9222.99
816,9221.4
817,9205.09
818,9206.03
819,9223.94
820,9243.45
821,9264
822,9280.82
823,9296.11
824,9331.95
825,9372.57
826,9366.33
827,9355.38
828,9325.8
829,9301.69
830,9314.9
831,9321.4
832,9306.06
833,9290.18
834,9273.25
835,9244.08
836,9200.15
837,9172.93
838,9158.64
839,9152.21
840,9149.56
841,9112.21
842,9065.55
843,9073.93
844,9087.27
845,9045.34
846,9004.54
847,8971.08
848,8944.94
849,8940.69
850,8920.57
851,8873.25
852,8860.15
853,8883.02
854,8890.71
855,8888.58
856,8893.43
857,8900.89
858,8945.53
859,8996.68
860,8979.82
861,8964.37
862,8978.24
863,8993.42
864,9013.17
865,9028.81
866,9036.82
867,9048.4
868,9063.9
869,9100.13
870,9149.85
871,9179.13
872,9201.06
873,9273.07
874,9352.82
875,9374.91
876,9402.1
877,9464.25
878,9508.3
879,9501.87
880,9492.44
881,9478.49
882,9475.73
883,9482.71
884,9467.7
885,9441.93
886,9420.48
887,9400.07
888,9385.75
889,9369.33
890,9327.37
891,9290.08
892,9268.56
893,9250.61
894,9238.77
895,9209.49
896,9163.7
897,9149.42
898,9151.57
899,9155.03
900,9158.8
901,9151.32
902,9141.22
903,9112.06
904,9086.06
905,9069.85
906,9052.58
907,9033.66
908,9038.5
909,9063.38
910,9068
911,9063.67
912,9049.26
913,9033.02
914,9056.81
915,9076.5
916,9073.25
917,9072.84
918,9078.81
919,9084.02
920,9088.36
921,9098.11
922,9111.14
923,9124.17
924,9137.21
925,9163.54
926,9186.37
927,9170.05
928,9161.13
929,9173.1
930,9187.84
931,9206.35
932,9213.68
933,9213.14
934,9203.17
935,9190.09
936,9152.5
937,9116.77
938,9126.05
939,9125.34
940,9094.76
941,9061.43
942,9024.29
943,8999.99
944,8984.69
945,8984.32
946,8988.7
947,8966.09
948,8943.72
949,8940.98
950,8941.88
951,8952.28
952,8951.57
953,8937.32
954,8949.18
955,8976.6
956,8978.48
957,8974.09
958,8993.38
959,9006.07
960,8981.35
961,8968.16
962,8977.51
963,8978.58
964,8971.98
965,8966.53
966,8961.58
967,8958.57
968,8954.02
969,8924.28
970,8894.39
971,8864.08
972,8847.24
973,8847.79
974,8826.34
975,8791.58
976,8797.98
977,8813.99
978,8773.16
979,8738.33
980,8729.49
981,8731.34
982,8750.69
983,8748.58
984,8730.32
985,8731.07
986,8737.71
987,8787.82
988,8829.4
989,8812.22
990,8808.89
991,8831.62
992,8842.3
993,8842.86
994,8879.6
995,8929
996,8927.3
997,8925.31
998,8941.99
999,8962.43
1000,8990.23
1001,8999.39
1002,8992.71
1003,8999.69
1004,9011.38
1005,9031.51
1006,9051.44
1007,9067.6
1008,9077.4
1009,9075.73
1010,9086.3
1011,9106.39
1012,9129.49
1013,9153.49
1014,9147.44
1015,9147.67
1016,9177.84
1017,9187.98
1018,9167.86
1019,9168.87
1020,9183.41
1021,9186
1022,9185.86
1023,9181.94
1024,9181.38
1025,9190.9
1026,9188.71
1027,9173.01
1028,9169.91
1029,9172.71
1030,9183.58
1031,9190.8
1032,9163.29
1033,9146.7
1034,9151.75
1035,9135.57
1036,9102.41
1037,9101.12
1038,9108.99
1039,9060.1
1040,9025.25
1041,9039.89
1042,9045.99
1043,9041.48
1044,9047.94
1045,9059.78
1046,9051.39
1047,9041.86
1048,9040.73
1049,9032.45
1050,9011
1051,8981.33
1052,8945.74
1053,8905.1
1054,8864.3
1055,8847.33
1056,8824.8
1057,8787.45
1058,8773.01
1059,8780.94
1060,8786.77
1061,8791.87
1062,8775.98
1063,8767.05
1064,8786.33
1065,8798.77
1066,8802.75
1067,8831.2
1068,8870.94
1069,8857.75
1070,8845.22
1071,8858.86
1072,8879.38
1073,8910.08
1074,8943.37
1075,8978.08
1076,8954.73
1077,8928.45
1078,8931.86
1079,8942.33
1080,8964.56
1081,8993.15
1082,9025.66
1083,9040.38
1084,9054.31
1085,9083.42
1086,9102.21
1087,9102.78
1088,9082.05
1089,9047.76
1090,9062.69
1091,9081.72
1092,9070.28
1093,9058.41
1094,9045.82
1095,9027.22
1096,9004.88
1097,8998.51
1098,8993.92
1099,8985.32
1100,8968.61
1101,8938.78
1102,8943.03
1103,8966.56
1104,8932.97
1105,8899.71
1106,8904.31
1107,8895.32
1108,8867.15
1109,8858.78
1110,8859.93
1111,8841.13
1112,8823.62
1113,8816.71
1114,8801
1115,8775.07
1116,8753.33
1117,8733.15
1118,8738.15
1119,8736.32
1120,8714.39
1121,8709.17
1122,8718.98
1123,8732.93
1124,8747.22
1125,8750.69
1126,8767.28
1127,8810.08
1128,8842.4
1129,8867.86
1130,8897.9
1131,8928.24
1132,8956.63
1133,8992.39
1134,9038.18
1135,9068.6
1136,9092.38
1137,9095.26
1138,9107.62
1139,9150
1140,9170.61
1141,9171.78
1142,9177.16
1143,9183.9
1144,9194.37
1145,9208.04
1146,9227.24
1147,9241.92
1148,9254.15
1149,9253.37
1150,9245.28
1151,9213.81
1152,9207
1153,9225.07
1154,9221.24
1155,9211.88
1156,9210.13
1157,9236.44
1158,9313.54
1159,9345.89
1160,9353.49
1161,9344.18
1162,9345.89
1163,9390.35
1164,9423.71
1165,9446.54
1166,9475.51
1167,9508.13
1168,9560.87
1169,9590.25
1170,9583.21
1171,9573.76
1172,9563.21
1173,9575.66
1174,9580.94
1175,9566.25
1176,9544.15
1177,9516.53
1178,9483.26
1179,9453.09
1180,9441.91
1181,9431.84
1182,9423.01
1183,9387.81
1184,9345.43
1185,9310.67
1186,9283
1187,9267.09
1188,9251.57
1189,9236.23
1190,9230.19
1191,9226.69
1192,9229.05
1193,9189.79
1194,9122.44
1195,9139.52
1196,9158.11
1197,9149.24
1198,9153.34
1199,9169.31
1200,9170.03
1201,9163.17
1202,9129.41
1203,9134.73
1204,9186.89
1205,9194.45
1206,9189
1207,9189
1208,9193.23
1209,9203.92
1210,9217.99
1211,9233.15
1212,9238.5
1213,9253.52
1214,9286.82
1215,9281.8
1216,9257.4
1217,9287.45
1218,9301.95
1219,9278.72
1220,9284.89
1221,9308.73
1222,9333.71
1223,9343.95
1224,9314.12
1225,9329.28
1226,9375.24
1227,9382.84
1228,9391.39
1229,9413.5
1230,9418.91
1231,9411.73
1232,9439.47
1233,9461.56
1234,9450.79
1235,9461.3
1236,9488.85
1237,9494.12
1238,9500.03
1239,9518.61
1240,9524.04
1241,9518.64
1242,9538.64
1243,9554.54
1244,9543.13
1245,9533.7
1246,9525.89
1247,9529.79
1248,9541.35
1249,9574.43
1250,9584.62
1251,9576.8
1252,9567.89
1253,9565.86
1254,9586.34
1255,9598.48
1256,9604.51
1257,9634.35
1258,9669.15
1259,9711.99
1260,9767.59
1261,9831.59
1262,9825.28
1263,9824.51
1264,9846.88
1265,9885.03
1266,9932.2
1267,9907.42
1268,9873.4
1269,9823.15
1270,9822.21
1271,9842.58
1272,9791.06
1273,9743.2
1274,9701.36
1275,9682.93
1276,9676.24
1277,9704.16
1278,9711.85
1279,9693.02
1280,9705.25
1281,9722.74
1282,9720.92
1283,9725.43
1284,9736.38
1285,9759.27
1286,9784.73
1287,9812.14
1288,9839.55
1289,9866.97
1290,9897.79
1291,9927.85
1292,9955.3
1293,10008
1294,10074.1
1295,10088.2
1296,10104.9
1297,10126.3
1298,10140.1
1299,10151
1300,10160.7
1301,10145.3
1302,10100.6
1303,10128
1304,10159
1305,10143.7
1306,10125.6
1307,10105.4
1308,10073.7
1309,10052.5
1310,10057.4
1311,10051.2
1312,10041.5
1313,10076.5
1314,10090.4
1315,10074.4
1316,10037.1
1317,9997.82
1318,9978.13
1319,9948.52
1320,9910.36
1321,9909.25
1322,9896.95
1323,9848.26
1324,9859.51
1325,9899.03
1326,9899.64
1327,9900.78
1328,9902.64
1329,9901.51
1330,9900.8
1331,9905.12
1332,9913.65
1333,9925.39
1334,9943.01
1335,9951.71
1336,9941.81
1337,9977.14
1338,10026.6
1339,10042.7
1340,10053.7
1341,10059.3
1342,10075.7
1343,10091.1
1344,10099.2
1345,10119.8
1346,10147.9
1347,10195.1
1348,10240.2
1349,10282.5
1350,10294.1
1351,10296.7
1352,10290.4
1353,10316
1354,10362
1355,10327.7
1356,10302.1
1357,10289.6
1358,10295.4
1359,10300.2
1360,10280.3
1361,10268
1362,10261.1
1363,10275.1
1364,10279.9
1365,10269.3
1366,10250.8
1367,10235.7
1368,10245.1
1369,10247.2
1370,10244
1371,10248.9
1372,10255.9
1373,10265.9
1374,10252.5
1375,10240.4
1376,10257.3
1377,10248
1378,10222.2
1379,10234.7
1380,10240.9
1381,10238.4
1382,10236.4
1383,10227.8
1384,10197.6
1385,10170.3
1386,10145.5
1387,10138
1388,10123.3
1389,10100.6
1390,10088
1391,10075.1
1392,10058.7
1393,10024.8
1394,9985.93
1395,9961.94
1396,9942.75
1397,9927.59
1398,9880.22
1399,9841.85
1400,9820.35
1401,9778.14
1402,9736.73
1403,9717.11
1404,9692.22
1405,9661.91
1406,9592.83
1407,9549.98
1408,9535.4
1409,9493.84
1410,9457.54
1411,9437.87
1412,9406.23
1413,9371.9
1414,9343.31
1415,9338.54
1416,9347.26
1417,9292.55
1418,9253.34
1419,9232.34
1420,9219.81
1421,9210.17
1422,9204.44
1423,9183.9
1424,9166.8
1425,9187.85
1426,9186.22
1427,9171.62
1428,9185.02
1429,9198.44
1430,9211.85
1431,9222.94
1432,9213.87
1433,9167.82
1434,9155.48
1435,9150.13
1436,9137.33
1437,9131.73
1438,9129.35
1439,9122.94
1440,9109.94
1441,9091.34
1442,9051.95
1443,9019.77
1444,8997.94
1445,8995.56
1446,8981.33
1447,8933.77
1448,8904.58
1449,8888.67
1450,8902.18
1451,8892.52
1452,8870.27
1453,8850.95
1454,8835.77
1455,8824.18
1456,8778.92
1457,8761.12
1458,8779.82
1459,8766.6
1460,8748.96
1461,8730.87
1462,8727.51
1463,8727.54
1464,8725.6
1465,8721.42
1466,8718.78
1467,8731.08
1468,8711.53
1469,8673.25
1470,8677.79
1471,8685.97
1472,8697.64
1473,8708.06
1474,8717.33
1475,8725.11
1476,8765.7
1477,8780.17
1478,8737.3
1479,8725.86
1480,8723.17
1481,8723.82
1482,8735.4
1483,8744.23
1484,8724.7
1485,8712.44
1486,8711.25
1487,8762.74
1488,8787.44
1489,8792.83
1490,8789.56
1491,8785.62
1492,8781.05
1493,8789.39
1494,8789.52
1495,8779.72
1496,8764.46
1497,8756.56
1498,8760.48
1499,8734.29
1500,8699.74
1501,8657.83
1502,8664.38
1503,8673.24
1504,8660.13
1505,8633.03
1506,8604.34
1507,8584.66
1508,8569.17
1509,8550.28
1510,8509.55
1511,8486.35
1512,8470.16
1513,8443.86
1514,8436.47
1515,8437.85
1516,8417.44
1517,8405.14
1518,8398.15
1519,8385.62
1520,8382.18
1521,8386.65
1522,8405.79
1523,8410.55
1524,8402.12
1525,8437.12
1526,8468.26
1527,8495.35
1528,8501.81
1529,8531.05
1530,8587.28
1531,8596.3
1532,8585.12
1533,8551.34
1534,8552.08
1535,8554
1536,8554
1537,8570.34
1538,8586.11
1539,8598.72
1540,8611.33
1541,8615.35
1542,8606.05
1543,8616.79
1544,8635.42
1545,8662.69
1546,8658.4
1547,8653.75
1548,8655.75
1549,8658.91
1550,8670.43
1551,8695.75
1552,8693.19
1553,8692.47
1554,8701.81
1555,8728.64
1556,8728.72
1557,8679.96
1558,8652.89
1559,8657.88
1560,8710.03
1561,8710.67
1562,8695.76
1563,8666.98
1564,8658.6
1565,8651.22
1566,8641.84
1567,8611.7
1568,8596.37
1569,8604.42
1570,8588.19
1571,8571.83
1572,8557.73
1573,8554.45
1574,8540.64
1575,8513.75
1576,8520.19
1577,8493.64
1578,8431.07
1579,8472.69
1580,8496.11
1581,8501.26
1582,8475.65
1583,8439.01
1584,8396.46
1585,8403.88
1586,8415.22
1587,8425.41
1588,8399.07
1589,8393.17
1590,8397.88
1591,8389.77
1592,8391.01
1593,8401.5
1594,8431.95
1595,8449.57
1596,8463.6
1597,8483.92
1598,8527.15
1599,8574.45
1600,8612.43
1601,8614.02
1602,8619.89
1603,8653.16
1604,8641.17
1605,8633.16
1606,8644.03
1607,8689.61
1608,8709.5
1609,8692.49
1610,8737.61
1611,8775.02
1612,8801.47
1613,8785.79
1614,8782.09
1615,8783.38
1616,8747.22
1617,8741.79
1618,8744.95
1619,8703.29
1620,8662.09
1621,8616.13
1622,8554.6
1623,8514.36
1624,8469.08
1625,8399.96
1626,8353.66
1627,8311.2
1628,8268.72
1629,8186.43
1630,8123.01
1631,8083.05
1632,8033.64
1633,7973.8
1634,7911.7
1635,7899.33
1636,7878.03
1637,7839.04
1638,7746.89
1639,7674.58
1640,7620.28
1641,7593.44
1642,7540.7
1643,7475.44
1644,7398.26
1645,7379.51
1646,7357.05
1647,7325.85
1648,7289.96
1649,7271.37
1650,7263.2
1651,7242.47
1652,7218.4
1653,7187.13
1654,7138.02
1655,7142.32
1656,7155.94
1657,7161.48
1658,7152.58
1659,7138
1660,7118.84
1661,7111.21
1662,7099.16
1663,7085.71
1664,7083.63
1665,7087.36
1666,7089.85
1667,7081.51
1668,7050.95
1669,7026.08
1670,7018.43
1671,7005.52
1672,7002.89
1673,7008.4
1674,6986.1
1675,6981.99
1676,6982.76
1677,6961.84
1678,6955.39
1679,6956.11
1680,6962.4
1681,6951
1682,6938.05
1683,6926.57
1684,6939.86
1685,6942
1686,6930.4
1687,6889.09
1688,6867.88
1689,6862.37
1690,6875.69
1691,6853.6
1692,6828.32
1693,6804.04
1694,6785.08
1695,6768.76
1696,6751.16
1697,6722.35
1698,6702.84
1699,6680.93
1700,6649.98
1701,6607.14
1702,6580.55
1703,6569.65
1704,6555.56
1705,6536.21
1706,6514.9
1707,6495.15
1708,6480.73
1709,6459.54
1710,6427.86
1711,6408.78
1712,6408.53
1713,6417.87
1714,6411.5
1715,6398.11
1716,6388.5
1717,6389.91
1718,6387.34
1719,6376.67
1720,6360.67
1721,6357.84
1722,6347.99
1723,6340.89
1724,6347.28
1725,6315.85
1726,6303.47
1727,6315.07
1728,6302.28
1729,6295.63
1730,6294.48
1731,6300.18
1732,6297.35
1733,6282.79
1734,6257.48
1735,6267.46
1736,6265.02
1737,6262.33
1738,6280.18
1739,6263.77
1740,6265.5
1741,6296.91
1742,6294.77
1743,6274.7
1744,6258.29
1745,6284.05
1746,6298.3
1747,6292.75
1748,6267.12
1749,6269.27
1750,6292.67
1751,6317.81
1752,6317.09
1753,6308.88
1754,6316.33
1755,6339.82
1756,6337.66
1757,6324.54
1758,6316.78
1759,6332.61
1760,6328.75
1761,6336.91
1762,6350.76
1763,6319.06
1764,6317.45
1765,6319.38
1766,6309.28
1767,6281.64
1768,6270
1769,6268.4
1770,6260.45
1771,6269.04
1772,6260.64
1773,6226.56
1774,6217.88
1775,6192.74
1776,6180.85
1777,6222.13
1778,6199.73
1779,6170.73
1780,6141.19
1781,6108.55
1782,6114.95
1783,6131.11
1784,6143.54
1785,6110.85
1786,6111.52
1787,6113.61
1788,6066.33
1789,6068.75
1790,6068.89
1791,6067.6
1792,6107.67
1793,6089.05
1794,6068.73
1795,6072.34
1796,6044.61
1797,6051.69
1798,6060.47
1799,6026.87
1800,6041.38
1801,6048.4
1802,6041.56
1803,6016.68
1804,6013.78
1805,6027.4
1806,6052.59
1807,6047.46
1808,6059.64
1809,6081.02
1810,6106.69
1811,6091.77
1812,6074.98
1813,6063.36
1814,6068.5
1815,6050.43
1816,6054.15
1817,6072.79
1818,6066.17
1819,6081.97
1820,6101.22
1821,6114.7
1822,6093.33
1823,6078.04
1824,6080.77
1825,6106.39
1826,6090.89
1827,6077.91
1828,6071.71
1829,6076.88
1830,6081.33
1831,6081.15
1832,6070.93
1833,6041.32
1834,6066.3
1835,6067.58
1836,6045.11
1837,6013.97
1838,6022.94
1839,6023.39
1840,6007.5
1841,5976.31
1842,5953.74
1843,5948.75
1844,5959.72
1845,5964.92
1846,5941.21
1847,5913.63
1848,5893
1849,5893
1850,5871.39
1851,5838.35
1852,5804.21
1853,5831.81
1854,5814.16
1855,5788.33
1856,5775.95
1857,5791.64
1858,5801.4
1859,5792.19
1860,5758.86
1861,5776.82
1862,5777.74
1863,5764.15
1864,5739.64
1865,5755.38
1866,5770.07
1867,5774.24
1868,5762.49
1869,5774.5
1870,5771.62
1871,5745.89
1872,5695.56
1873,5707.59
1874,5726.09
1875,5724.43
1876,5688.91
1877,5687.41
1878,5680.39
1879,5687.17
1880,5711.34
1881,5663.82
1882,5671.27
1883,5676.67
1884,5658.23
1885,5670.32
1886,5676.53
1887,5688.98
1888,5704.59
1889,5678.86
1890,5683.82
1891,5698.54
1892,5714.8
1893,5725.41
1894,5737.32
1895,5736.14
1896,5731.83
1897,5759.16
1898,5749.07
1899,5715.27
1900,5687.4
1901,5715.53
1902,5677.35
1903,5662
1904,5651.55
1905,5618.98
1906,5615.17
1907,5576.48
1908,5531.66
1909,5505.82
1910,5531.76
1911,5532.78
1912,5511.82
1913,5480.4
1914,5490.33
1915,5500.91
1916,5503.19
1917,5501.49
1918,5512.98
1919,5535.62
1920,5540.36
1921,5546.5
1922,5584.83
1923,5610.2
1924,5607.91
1925,5622
1926,5673.54
1927,5645.11
1928,5626.93
1929,5586.98
1930,5524.94
##>>>>>End Processed Spectral Data<<<<<
